round,hospital,train_loss,test_loss,micro_f1,precision,recall,macro_f1,macro_precision,macro_recall
1,chapman_shaoxing,0.2587039432707865,0.2291300420538853,0.6479102956167176,0.6852091418714963,0.61446249033256,0.3102393264311722,0.360162547270261,0.3358277310981254
1,cpsc_2018,0.2292582527796427,0.2230099751551946,0.5104993000466636,0.6222980659840728,0.432753164556962,0.1824890080493152,0.2419960181302156,0.2114657266918837
1,georgia,0.3200610215757407,0.513391366572056,0.324244966442953,0.3094475580464371,0.3405286343612335,0.0866605523866786,0.1674479166666666,0.1644966402772999
1,ningbo,0.214617782487319,0.2144422744108098,0.37162941978806,0.6790644171779141,0.2558139534883721,0.1292089915364321,0.2482762995638011,0.122313661895198
1,ptb-xl,0.217400881529081,0.2317170305283803,0.6542478565861263,0.6455929856945085,0.6631379364828567,0.1847968339654865,0.2113466313914774,0.2425922647780534
2,chapman_shaoxing,0.2131468729766564,0.3103291661304942,0.5861486486486487,0.6455813953488372,0.5367362722351121,0.2968221162929769,0.3835477357867785,0.3029582538112141
2,cpsc_2018,0.2205664244790872,0.2903542232513427,0.5086083213773315,0.4652230971128609,0.5609177215189873,0.2364556942340363,0.3693817890104089,0.279885081786622
2,georgia,0.2888225577771663,0.2643828202509186,0.5038759689922481,0.5597416576964478,0.4581497797356828,0.2998451197385882,0.3478939139729157,0.300589485776662
2,ningbo,0.1819745905531301,0.2973174860647746,0.3960964408725603,0.4581673306772908,0.3488372093023256,0.1738464574976048,0.2188015135463219,0.1990671382677812
2,ptb-xl,0.2001755927466281,0.1605921238802458,0.7448905109489051,0.8814510904772187,0.6449676094169695,0.1566900399010882,0.2214539998867987,0.1412234971714297
3,chapman_shaoxing,0.1921049513065131,0.1932397040270142,0.6559027049695954,0.7164452588181401,0.6047950502706884,0.3184350371251883,0.3487806623454799,0.322388545948089
3,cpsc_2018,0.19118435797592,0.1446979120373726,0.6480593109463585,0.7220602526724975,0.5878164556962026,0.28202509579581,0.3655607428266641,0.252964406181827
3,georgia,0.2731146368691149,0.6351403064519456,0.2987688098495212,0.3942238267148014,0.2405286343612334,0.1262876235792127,0.2784559322371233,0.1580493527521684
3,ningbo,0.1633923096618448,0.1992202161565157,0.574844494708781,0.6521260997067448,0.5139390437671529,0.1972909580186642,0.2629625810971633,0.2072061758074707
3,ptb-xl,0.1826808681293698,0.3419825719959836,0.6471088435374149,0.7006076229055422,0.601200821614789,0.1151686641643925,0.2960032957968938,0.1759613613402424
4,chapman_shaoxing,0.1759302143616534,0.1748642861464266,0.7133995037220844,0.7666666666666667,0.6670533642691415,0.4303647038242866,0.4858551500055412,0.4642778470532048
4,cpsc_2018,0.1768791225800911,0.1412122266491254,0.7057884231536926,0.7123287671232876,0.6993670886075949,0.374638742364519,0.3710984563107942,0.3963837945602803
4,georgia,0.2483545961771525,0.2722279644996217,0.4230769230769231,0.7148846960167715,0.3004405286343612,0.2354371262194723,0.370067938450877,0.2305314214210068
4,ningbo,0.1526772383249637,0.140279514950567,0.7283451297607011,0.8740141557128412,0.6242958255091723,0.2566663798989272,0.3004211910678983,0.2362463003666176
4,ptb-xl,0.1703899200481607,0.1811145094042721,0.7559987535057651,0.7456585215921315,0.7666297993363881,0.2558138268264178,0.2786048274581281,0.3016522363039074
5,chapman_shaoxing,0.1660582002908814,0.189406382898658,0.674293114612562,0.7630679042501222,0.6040216550657386,0.3339039477502202,0.3847906957084653,0.3257338507862726
5,cpsc_2018,0.1658123925328254,0.1221985164284706,0.7416563658838071,0.7738607050730868,0.7120253164556962,0.3673935082767514,0.3793237422773526,0.3660478076187619
5,georgia,0.2381181554394025,0.2005846096763333,0.5960193652501344,0.7651933701657458,0.4881057268722467,0.3664925999789166,0.5061104246629055,0.3270619620965552
5,ningbo,0.1431177442238581,0.1394230581926448,0.7499601339499282,0.8369816693361808,0.6793297703307815,0.2973187747418307,0.3232089120755885,0.2794056958560068
5,ptb-xl,0.1610971313260297,0.1418223727366996,0.8036113499570078,0.8815317864553858,0.7383472902512245,0.3467655533974729,0.4175168172656112,0.3301653230188753
6,chapman_shaoxing,0.1543844205400493,0.1465791340727927,0.7439024390243902,0.8152073732718894,0.6840680587780356,0.4429234660620606,0.4968540988263799,0.4535083138506945
6,cpsc_2018,0.1586220623801152,0.1180226982136567,0.7371475953565506,0.774390243902439,0.7033227848101266,0.3561944660131721,0.39700327940035,0.3467172824495312
6,georgia,0.2299872095532277,0.2199163010108818,0.5960437272254034,0.7283715012722646,0.5044052863436124,0.3832772430511306,0.3982591822942488,0.3876625326967125
6,ningbo,0.1344551874644717,0.1389050486151661,0.7741488214450778,0.8293447763657369,0.7258413982377582,0.3143720366830496,0.3716255683149082,0.3067922257570968
6,ptb-xl,0.1576313143171115,0.18056571948211,0.7286087524493795,0.7538435546545025,0.7050086901564229,0.3678624145502385,0.3867465570155159,0.4006608642876318
7,chapman_shaoxing,0.1479140911449039,0.1624833810127387,0.757258064516129,0.7910699241786016,0.7262180974477959,0.4334499084813734,0.6215419795007783,0.4102304338191356
7,cpsc_2018,0.152151367093126,0.1328332151969274,0.7200674536256324,0.7707581227436823,0.6756329113924051,0.3489998025045368,0.3877386945350242,0.3612203832542973
7,georgia,0.222043518926583,0.2070640562084114,0.6054766734279919,0.7132616487455197,0.5259911894273128,0.3758922150413978,0.4080401160727762,0.3640668108327826
7,ningbo,0.1291263020569947,0.1482661525000418,0.7281607814877091,0.8169241825368307,0.6567961866242958,0.3140338691033773,0.4214148904777812,0.3517290522792959
7,ptb-xl,0.1519645165630789,0.1469388140344234,0.7813723140825944,0.7901453957996769,0.7727919102543845,0.3188071061241757,0.4187234955706234,0.3435374689722847
8,chapman_shaoxing,0.1440305475722958,0.1392738362300699,0.7768197313013836,0.806747188671387,0.7490332559938129,0.4393604422162568,0.4764948427403022,0.4326947160418237
8,cpsc_2018,0.14844538996617,0.1200933503607908,0.7174103237095363,0.8023483365949119,0.6487341772151899,0.342312333026755,0.4127745362138226,0.3382137837763566
8,georgia,0.2173416098652809,0.2320797879574368,0.5447368421052632,0.6764705882352942,0.4559471365638766,0.356732608968465,0.5055009990281443,0.3463304299381475
8,ningbo,0.1255123576271199,0.110876251347363,0.8002198837757185,0.8767854069867492,0.7359526216957967,0.3330610234551339,0.4405892022842886,0.3085749320587974
8,ptb-xl,0.1489949008634052,0.1820992817783537,0.748065191659838,0.88268156424581,0.6490756833623005,0.3020596874693021,0.3884153986021686,0.2802256474133038
9,chapman_shaoxing,0.1365593223735658,0.171963389647209,0.7080890973036342,0.7156398104265402,0.7006960556844548,0.4112326568917762,0.5000575462084833,0.4087995123277486
9,cpsc_2018,0.1441786201794942,0.1162100027501583,0.7710261569416499,0.7846027846027847,0.7579113924050633,0.3946408308235484,0.3784886437494363,0.4212497117544938
9,georgia,0.2148977352087112,0.2089030093070372,0.6145279676031384,0.7221891731112433,0.5348017621145374,0.4563758046495554,0.6402684617168438,0.4376957306921675
9,ningbo,0.1226028420170333,0.1493905894138983,0.7262343127677162,0.7568922305764411,0.6979633107034523,0.2951890518727759,0.3495137042527076,0.2950377354447994
9,ptb-xl,0.1439162764464551,0.1372562083256335,0.7931827865360034,0.8608953015168331,0.7353452362142519,0.3564074612278043,0.4607866568395782,0.3668850302128044
10,chapman_shaoxing,0.1366845449934972,0.1944446006189968,0.706018073447414,0.7021032504780115,0.7099767981438515,0.4892252617400139,0.5134612584914463,0.5087032604793023
10,cpsc_2018,0.1411945586651563,0.1288947974642117,0.7355242566510172,0.7275541795665634,0.7436708860759493,0.3788194637903645,0.3797778611095141,0.3983645989030711
10,georgia,0.2104295826352694,0.2031305074981115,0.6122552758708365,0.7239927841250752,0.5303964757709251,0.4232822689467506,0.5330625955493796,0.3987451998934337
10,ningbo,0.1191640879227736,0.1100552456160741,0.7929097095829707,0.8767938396919845,0.72367470749675,0.361757544484493,0.4084908455099682,0.3321048065173315
10,ptb-xl,0.1430324608275928,0.1260856716493463,0.817101753818799,0.836366644606221,0.7987043766787802,0.4071183082328777,0.5010285755187156,0.4074303200477038
11,chapman_shaoxing,0.1316337993649287,0.1553159606153682,0.7387781913728925,0.8515901060070671,0.6523588553750966,0.4490517163131457,0.499567383470216,0.4326032255482335
11,cpsc_2018,0.1377250904589891,0.1036653404434522,0.7688927943760984,0.8646245059288538,0.692246835443038,0.3867873945081668,0.4149511308394557,0.3818941230944433
11,georgia,0.2069290340786763,0.2161783552140865,0.6538895152198422,0.6697459584295612,0.6387665198237885,0.4768105641841682,0.5093599281749993,0.4923248940598152
11,ningbo,0.11807163031591,0.1200284997094422,0.7829534192269574,0.8290280917016467,0.7417304636718186,0.3457729009511429,0.4656690118984581,0.3467750953814639
11,ptb-xl,0.1422558234997462,0.1244591980209368,0.7976420904451874,0.8999404407385349,0.7162268920840575,0.3569409324662739,0.5067629533743853,0.3451966134699513
12,chapman_shaoxing,0.1314517711299113,0.1128004005462941,0.8180935740632886,0.8214424951267056,0.8147718484145399,0.5081958400255596,0.5798131376934677,0.5327190165656055
12,cpsc_2018,0.1392515036960442,0.1141481287280718,0.7575757575757576,0.8093525179856115,0.7120253164556962,0.3684209670646053,0.3957914224412678,0.357674958834872
12,georgia,0.2035815764364658,0.2162429054529921,0.6176819151457691,0.6685479733196511,0.5740088105726873,0.4136983771757177,0.5324368994355163,0.4282103803504245
12,ningbo,0.1146150090598443,0.1207231602365417,0.7830396475770925,0.8597339782345829,0.7189079878665319,0.3515590053322117,0.4274205116909388,0.3829480170007677
12,ptb-xl,0.1395316640651668,0.1417368960499536,0.7649086521889004,0.8413270142180095,0.7012166218991942,0.3739430365904665,0.4636640261821337,0.3687792240656233
13,chapman_shaoxing,0.1270415817175827,0.1331551624935562,0.8015055467511886,0.8216896831844029,0.7822892498066512,0.5229543302535531,0.522445637977443,0.5665963995203381
13,cpsc_2018,0.1357429167379935,0.1183069950838883,0.7811860940695297,0.8086367485182049,0.7555379746835443,0.4187915177591072,0.453485216205346,0.405749327370257
13,georgia,0.2067516015696467,0.1897829616243399,0.6476619154788698,0.7489878542510121,0.5704845814977973,0.4438845396649979,0.6037746327443108,0.4197069514032803
13,ningbo,0.112628314116505,0.1068551450595259,0.8140389275384976,0.8870528109028961,0.7521305792286581,0.3869866426275057,0.4377717397572159,0.36668830033959
13,ptb-xl,0.1378088481086855,0.1336850131164259,0.8203592814371258,0.8407696135345829,0.8009164164954969,0.4290164715292008,0.480042776018471,0.4455824879496536
14,chapman_shaoxing,0.1253378177635102,0.1244234728105997,0.787633865427359,0.8247989843419382,0.7536736272235112,0.478065986087017,0.5674776703444985,0.4614413828738001
14,cpsc_2018,0.1339472022031744,0.1349142630894979,0.7075971731448764,0.801,0.6337025316455697,0.3289954770383259,0.4274744850285457,0.3301108657077201
14,georgia,0.202459498071203,0.1839812356725479,0.6651730146875778,0.7647395535203205,0.5885462555066079,0.5031739938658938,0.5572639913516809,0.4789349696824198
14,ningbo,0.1104243691799068,0.1021951613814703,0.8165888744356875,0.8682069638789457,0.770764119601329,0.3963416072141064,0.4443630698326624,0.3741295620391253
14,ptb-xl,0.1362908871759423,0.131036194034289,0.8095277342784143,0.8461405926946933,0.7759519671354085,0.3933496543127921,0.4379280830090422,0.4050355436121243
15,chapman_shaoxing,0.1254302994793008,0.1118685119801153,0.8163024217365623,0.8315282791817088,0.8016241299303944,0.5428761319993721,0.6714314865791211,0.5463054598894689
15,cpsc_2018,0.1314985472957293,0.110449900428454,0.7679012345679013,0.8001715265866209,0.7381329113924051,0.4105598165585826,0.4648342879565206,0.3905883136296584
15,georgia,0.1996295879613243,0.1923569386589874,0.6814848762603116,0.710124164278892,0.6550660792951541,0.4917909855857251,0.5397680300653577,0.4838017826316694
15,ningbo,0.1103703520019049,0.1111022247892937,0.8067733704476919,0.8680532445923461,0.7535750397226636,0.3930608374028553,0.4260982616945679,0.3999331581438661
15,ptb-xl,0.1359429458021664,0.126793773653616,0.803413026949396,0.8632897603485838,0.7513035234634223,0.4016479497920777,0.4356295606528926,0.3905220305659757
16,chapman_shaoxing,0.12395928963828998,0.11116338903242248,0.8295037652056382,0.8283841110682607,0.8306264501160093,0.5444793133562866,0.6077319314061815,0.5690100300854263
16,cpsc_2018,0.13163321649034818,0.10545544748504956,0.7690288713910761,0.860078277886497,0.6954113924050633,0.40172437412674517,0.51919089030402,0.3861006709769362
16,georgia,0.19885969214944862,0.1742500908021788,0.6945646945646946,0.7648305084745762,0.6361233480176212,0.5180879880398781,0.5667069605444967,0.48953986036621533
16,ningbo,0.10859157895169869,0.11449794671365193,0.8037886955182504,0.8607949859805377,0.7538639318214647,0.3662787920180237,0.4373799809618073,0.34301594948007647
16,ptb-xl,0.13436935904715563,0.12389633848469973,0.7988990194391881,0.8767226732112516,0.7337652077737399,0.43347841647274804,0.46526030809636126,0.4352149007494725
17,chapman_shaoxing,0.12264274049653116,0.10110451861963433,0.8231631382316313,0.8884408602150538,0.7668213457076566,0.491762144186926,0.6333757807991414,0.49115652815643746
17,cpsc_2018,0.13226146721591553,0.11276660760243734,0.7445255474452555,0.8140845070422535,0.6859177215189873,0.36723840973136707,0.42373994908410456,0.35014425631464613
17,georgia,0.20006092120984606,0.17668112164851532,0.6978596316575411,0.8020594965675057,0.6176211453744493,0.5138761077258552,0.5802618228152497,0.4809726259540213
17,ningbo,0.10785390014842548,0.12419268681002514,0.7958584226758701,0.8094100074682599,0.7827531417015745,0.36397118990987015,0.3812072438575059,0.4277031203141748
17,ptb-xl,0.13390707515335923,0.126810221263551,0.8203131472123271,0.8622431208638105,0.7822720808974561,0.4181904013395828,0.4655845768726625,0.4114616765495651
18,chapman_shaoxing,0.1210689308347216,0.10422459721438966,0.8226779252110977,0.8567839195979899,0.7911832946635731,0.5334019350592254,0.6247882178606966,0.4992123854398158
18,cpsc_2018,0.13014602053910493,0.11297191475828489,0.7517064846416383,0.8157407407407408,0.696993670886076,0.38128623952719826,0.3922620031796389,0.3805665865467907
18,georgia,0.19666232879036197,0.1803001472816884,0.6739454094292804,0.7715909090909091,0.5982378854625551,0.49386303406711657,0.5705520782246384,0.46125926539491197
18,ningbo,0.1071524249937447,0.1271169307907777,0.7945903844792183,0.7793055555555556,0.8104867831864798,0.4166785804039144,0.39799503369025774,0.4718173082437329
18,ptb-xl,0.13336848728571216,0.12135818381103272,0.8064959615054133,0.8839706159352043,0.7415073471322484,0.3553653382868725,0.5209750903355307,0.3432958701637711
19,chapman_shaoxing,0.11905528732324355,0.10727458551399789,0.8335620466575181,0.8453280318091452,0.8221191028615623,0.5611258927453405,0.5853264764987339,0.5618432638749576
19,cpsc_2018,0.13132591728121043,0.0989133869111538,0.7844311377245509,0.8538175046554934,0.7254746835443038,0.3920255711383143,0.4256551209316278,0.3737207788184486
19,georgia,0.19775240930418173,0.19645376517934707,0.6238532110091743,0.7400241837968561,0.5392070484581498,0.45648706149306734,0.6192715368655438,0.4262278582837023
19,ningbo,0.10575289394650247,0.11452630633222205,0.7956187723435004,0.8402956298200515,0.7554528383648708,0.4043764391227216,0.3986803261872514,0.4342786268418282
19,ptb-xl,0.13199654884438097,0.11942996868700809,0.8129748186086214,0.8841440772372818,0.7524095433717807,0.4280691564776915,0.48476089859986987,0.43157151800260724
20,chapman_shaoxing,0.1180990091080119,0.09783870164873236,0.8371723590150913,0.8604081632653061,0.8151585460170147,0.5595702158891295,0.5914433881785931,0.5594276939489412
20,cpsc_2018,0.12938444613168637,0.09501119921604792,0.7907573812580231,0.8611369990680335,0.7310126582278481,0.4107945752639302,0.4810512260296515,0.3910991908472856
20,georgia,0.1958808566023614,0.1815838957729849,0.6280814576634512,0.801641586867305,0.5162995594713656,0.4748286978646555,0.5953826673733725,0.41224612058606863
20,ningbo,0.10669112157164976,0.1508861953981354,0.7160881032147695,0.7068674359696031,0.725552506138957,0.3823712977656808,0.3923395289607346,0.41659144476728516
20,ptb-xl,0.13185303176296415,0.12717857013523806,0.8135160981829773,0.820710725196977,0.8064465160372887,0.42235401072229367,0.39697661270547197,0.4672923200895694
21,chapman_shaoxing,0.11689018922405131,0.11910539268815921,0.8062622309197651,0.8161648177496038,0.7965970610982211,0.5400571479802517,0.5453875211743971,0.5561367860161134
21,cpsc_2018,0.12733950729171434,0.11097109188636144,0.7431551499348109,0.8244937319189971,0.6764240506329114,0.35740257524270147,0.4508745893943642,0.34775107165028
21,georgia,0.19552044243570052,0.20035414285596134,0.664745437079731,0.7307286166842661,0.6096916299559472,0.4864351677589929,0.554505290795357,0.4653552409307326
21,ningbo,0.10387542892292967,0.11875622565458928,0.8023845007451564,0.828690164691396,0.7776975299725553,0.38188994041998175,0.44550088673639504,0.39314996754141346
21,ptb-xl,0.13114927419082406,0.11612013151635461,0.8237449005078677,0.8706441393875396,0.7816400695212514,0.4131145066148753,0.5153129706878524,0.4122951603561502
22,chapman_shaoxing,0.11801828427394484,0.11184101308680187,0.8191925102399064,0.8264462809917356,0.8120649651972158,0.553958704434097,0.5822696217135012,0.565744556359096
22,cpsc_2018,0.12569774710883697,0.10794117351373037,0.7760586319218241,0.799496644295302,0.7539556962025317,0.39728807949416955,0.400942262586464,0.40268887932195435
22,georgia,0.1938890985523661,0.1778448060588929,0.6901237563698132,0.7682333873581848,0.626431718061674,0.5396096216609014,0.5965377424780792,0.5069272000629692
22,ningbo,0.1045856350546771,0.11323740839026869,0.7904052165812762,0.8543379761704984,0.7353748374981944,0.4031396829777823,0.47063190048061676,0.3946915175481636
22,ptb-xl,0.13032912336884797,0.1486793102930254,0.7669464170432537,0.7837704106877783,0.7508295149312688,0.43835860398750626,0.46630557407625944,0.46320156626238074
23,chapman_shaoxing,0.11675024725449314,0.09221217677123465,0.8453692370461037,0.8946459412780656,0.8012374323279196,0.5838012883387926,0.6079564024717558,0.5656934785222477
23,cpsc_2018,0.1270680962006251,0.1457990970214208,0.7011320754716981,0.6702741702741702,0.7349683544303798,0.37393250981076404,0.3860120236878389,0.38970051206568807
23,georgia,0.19312385763680817,0.18421859945197708,0.6958929395477619,0.7306201550387597,0.66431718061674,0.5168289553188715,0.5604632276398244,0.5099007787795119
23,ningbo,0.10310890694302162,0.13232489956276758,0.7254428341384863,0.8195379297798799,0.6507294525494728,0.33069954252002437,0.4592387151359277,0.33119784023995347
23,ptb-xl,0.1301982487505833,0.11743608936525796,0.8165018641595072,0.8382426360459311,0.7958603254858587,0.43633189184994553,0.5156625654415962,0.4202443125810618
24,chapman_shaoxing,0.11518503587115596,0.10521306245887684,0.8372272639505696,0.8360971847281141,0.8383604021655066,0.5793126651868284,0.5690978009088854,0.6105191686315564
24,cpsc_2018,0.13010205487410229,0.09546659201383591,0.7970419063270336,0.8290598290598291,0.7674050632911392,0.4104434579987261,0.40578789633935114,0.4193854561004014
24,georgia,0.19303373855483882,0.17794927538743296,0.70489443378119,0.773972602739726,0.647136563876652,0.5248252906453666,0.6560786594868445,0.49909378465513926
24,ningbo,0.10244873223396447,0.10856058577873877,0.8040704500978474,0.8776486671223513,0.7418749097212192,0.40148276637104363,0.4845907795154107,0.39670924077390946
24,ptb-xl,0.12952802705263344,0.1234470540409759,0.8149654331028874,0.8397586322494134,0.7915942486964765,0.4459832567107112,0.46914027043599754,0.4675308964558568
25,chapman_shaoxing,0.1145451377420795,0.1039127384201955,0.833201581027668,0.8520614389652384,0.8151585460170147,0.5460246247421549,0.5748622268944098,0.5614003995252906
25,cpsc_2018,0.12664291789134344,0.09852850859363874,0.797752808988764,0.8094462540716613,0.7863924050632911,0.40482252386123224,0.39369612920511127,0.4260003836588225
25,georgia,0.1916481727807253,0.1756633179425036,0.687192118226601,0.7793296089385475,0.6145374449339207,0.5269807542431727,0.586555011661614,0.4899323521929381
25,ningbo,0.10275979890166043,0.10779468707208123,0.819757883724406,0.8492026629509212,0.7922865809620107,0.40689539402244135,0.4493090850129642,0.39032258061479763
25,ptb-xl,0.1299695132845595,0.11930686894081845,0.8260652463382158,0.872692104800422,0.7841681150260704,0.44353530438977046,0.4491893726242924,0.4523079175711823
26,chapman_shaoxing,0.1143876450519906,0.10239732786381649,0.83046781287485,0.8596854304635762,0.8031709203402939,0.5573884629521512,0.6066984853608185,0.5388520919230536
26,cpsc_2018,0.12691698661694925,0.09255904098351797,0.8054977092877967,0.8504837291116975,0.7650316455696202,0.41026574050115316,0.4282782662242021,0.4066608409497568
26,georgia,0.18946019450531287,0.1820356400990949,0.6353313968840771,0.7930125247198417,0.5299559471365639,0.4877459378818423,0.5759433918610183,0.4465914125799724
26,ningbo,0.10171609176396466,0.11272821450872081,0.8067843227137291,0.8563087901394746,0.7626751408348982,0.38254087398835673,0.4405692945434932,0.405398153982536
26,ptb-xl,0.12912460831932354,0.11245692558161659,0.8361388956656095,0.8614276139410187,0.8122926212671828,0.4598881253857172,0.4958116274055902,0.4510688228080308
27,chapman_shaoxing,0.11220696075738362,0.1198496592499442,0.820038535645472,0.8172043010752689,0.822892498066512,0.5654288542437923,0.5552035800698482,0.5927358879552476
27,cpsc_2018,0.12454543699820836,0.10187577630082766,0.7911646586345381,0.8034257748776509,0.7792721518987342,0.40935446622751875,0.46247285283509215,0.41402415753370064
27,georgia,0.19144953465929218,0.1731522178042282,0.7022308438409312,0.7810140237324703,0.6378854625550661,0.5247426642240481,0.5975265494211649,0.4875852060245201
27,ningbo,0.10086975130838383,0.11275804324607765,0.7829270192382585,0.8495605138607167,0.7259858442871587,0.37323434384714976,0.44971682141692443,0.3640240242581083
27,ptb-xl,0.12878485366404624,0.11388664300280832,0.8364252298757864,0.8543417366946778,0.8192447464054353,0.47342471903825456,0.5171467998857083,0.4539934166570286
28,chapman_shaoxing,0.11368453694851535,0.12585965146200132,0.7800480769230769,0.8092269326683291,0.7529002320185615,0.5038837988014612,0.5378440776694625,0.5399739609238535
28,cpsc_2018,0.1269512292742729,0.0943171722938617,0.7887571365832236,0.8864758144126358,0.7104430379746836,0.40725137590200094,0.429110534691263,0.39163774482519303
28,georgia,0.18961192579830394,0.2366632311378868,0.5991600559962669,0.6369047619047619,0.5656387665198238,0.4569780867569507,0.5096788717066661,0.4837084100964452
28,ningbo,0.10060891842216489,0.09846182306297123,0.8315548780487805,0.880264644182669,0.7879531994799942,0.41445210347884637,0.5283842679877492,0.39574164052504807
28,ptb-xl,0.12779119810153208,0.1231707988498102,0.8130889155388041,0.8879326473339569,0.7498814978669616,0.4365579291545609,0.5031663190901691,0.4225470994294099
29,chapman_shaoxing,0.11230702642865495,0.10534063125250198,0.8238321456848773,0.8438767234387672,0.8047177107501934,0.5603913685426398,0.5644065703129081,0.5654752970584342
29,cpsc_2018,0.12425822630524636,0.09114727790157,0.8037462750106428,0.8700460829493087,0.7468354430379747,0.4248321704551443,0.43343226932847556,0.4168255676736725
29,georgia,0.18956767501053856,0.21261419044825638,0.6171021377672209,0.6695876288659793,0.5722466960352423,0.4837635293828475,0.5763464574053055,0.47363072595411465
29,ningbo,0.10002624690479121,0.13478032452320413,0.7856124758950281,0.9362509992006395,0.6767297414415716,0.3080099183198974,0.49653167656134006,0.27902059913859567
29,ptb-xl,0.12743767383136564,0.12027056295665497,0.8243913968329,0.8221244500314268,0.8266708800758413,0.42168337142207846,0.5261879651474398,0.4254862940790252
30,chapman_shaoxing,0.11203103198920972,0.08814225874651792,0.8525317732499496,0.8911851539434837,0.817092034029389,0.5863749082668724,0.610020759910419,0.5710375984660111
30,cpsc_2018,0.12552733870844046,0.1106828115383784,0.7646336471551372,0.7921967769296013,0.7389240506329114,0.3942628433525315,0.4080102168464495,0.40019520863285124
30,georgia,0.190047134627022,0.16642047978431276,0.7235349716446124,0.7803261977573904,0.6744493392070484,0.5398402609666465,0.572177819806862,0.5199282560615699
30,ningbo,0.09950625979743957,0.11702616843527981,0.8065934065934066,0.8832731648616126,0.7421638018200202,0.37853489043721805,0.47631561393172345,0.35747797645932383
30,ptb-xl,0.12721977003287,0.1165650547358133,0.8252216089647099,0.8765322437377865,0.7795860325485858,0.4277782949363029,0.5020325034167044,0.42355843490274886
